# Site = TNU		
# Longitude = 108.02	
# Latitude = 12.65	
#	
# UTC_Offset = +07:00	
# TimeZone = Greenwich Mean Time (GMT)	
#	
# UTC_StartTime = 2013-12-11 00:00:00	
# LogInterval =  5	
# LogType =  filtered	
# MonitorID = 0325	
# StationID = JJI	
# Frequency = 22200	
0	68094811.23
5.78704E-05	68065389.92
0.000115741	68035968.61
0.000173611	68006547.3
0.000231481	67977125.99
0.000289352	67721529.33
0.000347222	67465932.66
0.000405093	67210336
0.000462963	66984160.65
0.000520833	66757985.3
0.000578704	66531809.95
0.000636574	66305634.6
0.000694444	66079459.24
0.000752315	65853283.89
0.000810185	65627108.54
0.000868056	65400933.19
0.000925926	65174757.84
0.000983796	64953022.41
0.001041667	64913905.53
0.001099537	64874788.66
0.001157407	64816054.71
0.001215278	64757320.77
0.001273148	64698586.82
0.001331019	64639852.88
0.001388889	64581118.93
0.001446759	64522384.99
0.00150463	64463651.04
0.0015625	64404917.1
0.00162037	64346183.15
0.001678241	64287449.21
0.001736111	64224275.34
0.001793981	64204658.27
0.001851852	64406101.46
0.001909722	64627161.72
0.001967593	64848221.97
0.002025463	65069282.23
0.002083333	65290342.49
0.002141204	65511402.74
0.002199074	65732463
0.002256944	65953523.25
0.002314815	66517742.8
0.002372685	67081962.34
0.002430556	67646181.88
0.002488426	68210401.43
0.002546296	68774620.97
0.002604167	69117780.25
0.002662037	69460939.54
0.002719907	69804098.83
0.002777778	70147258.11
0.002835648	70490417.4
0.002893519	70833576.69
0.002951389	71176735.97
0.003009259	72041353.29
0.00306713	72562811.31
0.003125	73084269.33
0.00318287	73605727.36
0.003240741	74127185.38
0.003298611	74648643.41
0.003356481	75170101.43
0.003414352	75691559.46
0.003472222	76213017.48
0.003530093	76734475.51
0.003587963	77255933.53
0.003645833	77777391.55
0.003703704	78342918.52
0.003761574	78007342.44
0.003819444	77671766.35
0.003877315	77336190.27
0.003935185	77000614.18
0.003993056	76665038.09
0.004050926	76114615.84
0.004108796	75564193.58
0.004166667	75013771.32
0.004224537	74463349.06
0.004282407	73912926.8
0.004340278	73362504.54
0.004398148	72812082.28
0.004456019	72217591.08
0.004513889	72002744.91
0.004571759	71787898.74
0.00462963	71573052.56
0.0046875	71358206.39
0.00474537	71485336.95
0.004803241	71813655.47
0.004861111	72141973.99
0.004918981	72456600.6
0.004976852	72771227.21
0.005034722	72640519.91
0.005092593	72509812.62
0.005150463	72379105.32
0.005208333	72248398.03
0.005266204	72117690.74
0.005324074	71986983.44
0.005381944	71856276.15
0.005439815	71725568.85
0.005497685	71252884.83
0.005555556	70793859.01
0.005613426	70334833.2
0.005671296	69889499.29
0.005729167	69623845.24
0.005787037	70158126.31
0.005844907	70692407.37
0.005902778	71226688.43
0.005960648	71760969.5
0.006018519	72203257.34
0.006076389	72645545.18
0.006134259	73087833.02
0.00619213	73530120.87
0.00625	73972408.71
0.00630787	74414696.55
0.006365741	74856984.39
0.006423611	75299272.23
0.006481481	75561880.23
0.006539352	75469887
0.006597222	75377893.78
0.006655093	75285900.56
0.006712963	75872370.87
0.006770833	76518567.71
0.006828704	77164764.55
0.006886574	77810961.39
0.006944444	78457158.22
0.007002315	79103355.06
0.007060185	79749551.9
0.007118056	80395748.74
0.007175926	81041945.58
0.007233796	81688142.42
0.007291667	82334339.26
0.007349537	82321190.99
0.007407407	82308042.73
0.007465278	81616430.93
0.007523148	80957085.83
0.007581019	80297740.73
0.007638889	79638395.63
0.007696759	78979050.52
0.00775463	78319705.42
0.0078125	77660360.32
0.00787037	77001015.22
0.007928241	76341670.12
0.007986111	75682325.02
0.008043981	75115771.31
0.008101852	75208562.71
0.008159722	75301354.11
0.008217593	75394145.51
0.008275463	76024455.42
0.008333333	76353235.92
0.008391204	76682016.43
0.008449074	77010796.94
0.008506944	77339577.44
0.008564815	77668357.95
0.008622685	77997138.45
0.008680556	78325918.96
0.008738426	78654699.47
0.008796296	78890688.57
0.008854167	79126677.68
0.008912037	79362666.79
0.008969907	79598655.9
0.009027778	79328350.44
0.009085648	79359574.39
0.009143519	79390798.35
0.009201389	79422022.3
0.009259259	79453246.25
0.00931713	79484470.2
0.009375	79628039.27
0.00943287	79771608.35
0.009490741	80069464.27
0.009548611	80367320.19
0.009606481	80665176.11
0.009664352	81036629.72
0.009722222	81408083.34
0.009780093	81748313
0.009837963	82088542.66
0.009895833	82428772.33
0.009953704	82887341.88
0.010011574	83428743.19
0.010069444	83970144.49
0.010127315	84399200.67
0.010185185	84828256.85
0.010243056	85103026.19
0.010300926	85377795.53
0.010358796	85652564.87
0.010416667	85853736.52
0.010474537	86054908.16
0.010532407	86256079.8
0.010590278	86457251.45
0.010648148	86658423.09
0.010706019	86794515.34
0.010763889	86847775.83
0.010821759	86683463.15
0.01087963	86519150.47
0.0109375	86354837.8
0.01099537	86190525.12
0.011053241	86026212.44
0.011111111	85861899.76
0.011168981	85697587.09
0.011226852	85533274.41
0.011284722	85368961.73
0.011342593	85204649.06
0.011400463	85040336.38
0.011458333	84822763.21
0.011516204	84800873.91
0.011574074	84996557.77
0.011631944	84978276.98
0.011689815	84959996.18
0.011747685	84941715.38
0.011805556	84923434.59
0.011863426	84905153.79
0.011921296	84886873
0.011979167	84868592.2
0.012037037	84850311.4
0.012094907	84832030.61
0.012152778	84813749.81
0.012210648	84795469.01
0.012268519	84581504.35
0.012326389	84659490.59
0.012384259	84951441.48
0.01244213	85243392.37
0.0125	85594724.23
0.01255787	86251536.87
0.012615741	86908349.51
0.012673611	87565162.15
0.012731481	88221974.79
0.012789352	88878787.43
0.012847222	89535600.07
0.012905093	90255003.6
0.012962963	90974407.13
0.013020833	91616632.29
0.013078704	91966906.56
0.013136574	92317180.83
0.013194444	92667455.1
0.013252315	92958348.4
0.013310185	92943760.92
0.013368056	92929173.44
0.013425926	92914585.96
0.013483796	92899998.49
0.013541667	92885411.01
0.013599537	92870823.53
0.013657407	92793645.16
0.013715278	93270004.08
0.013773148	93698987.58
0.013831019	94127971.07
0.013888889	94556954.56
0.013946759	94311260.07
0.01400463	94065565.57
0.0140625	93819871.08
0.01412037	93574176.58
0.014178241	93328482.09
0.014236111	93082787.59
0.014293981	92837093.1
0.014351852	92591398.61
0.014409722	92345704.11
0.014467593	91546472.33
0.014525463	90871794.34
0.014583333	90197116.35
0.014641204	89664961.47
0.014699074	89807484.56
0.014756944	89950007.66
0.014814815	90092530.76
0.014872685	90235053.86
0.014930556	90225362.63
0.014988426	90215671.4
0.015046296	90205980.18
0.015104167	90196288.95
0.015162037	90186597.72
0.015219907	90176906.49
0.015277778	90167215.26
0.015335648	90157524.03
0.015393519	90005309.71
0.015451389	89853095.38
0.015509259	89700881.05
0.01556713	89548666.72
0.015625	89473631.52
0.01568287	89550810.65
0.015740741	89627989.78
0.015798611	89705168.91
0.015856481	89782348.03
0.015914352	89859527.16
0.015972222	89936706.29
0.016030093	90013885.42
0.016087963	90091064.54
0.016145833	90168243.67
0.016203704	90293063.56
0.016261574	90417883.45
0.016319444	90542703.35
0.016377315	90590344.11
0.016435185	90637984.87
0.016493056	90685625.64
0.016550926	90733266.4
0.016608796	90780907.17
0.016666667	90828547.93
0.016724537	91008108.42
0.016782407	91187668.91
0.016840278	91367229.4
0.016898148	91546789.89
0.016956019	91678709.62
0.017013889	92064756.95
0.017071759	92450804.27
0.01712963	92836851.6
0.0171875	93222898.92
0.01724537	93575137.58
0.017303241	93927376.24
0.017361111	94279614.9
0.017418981	94631853.56
0.017476852	94852172.5
0.017534722	95072491.43
0.017592593	95292810.36
0.017650463	95336649.69
0.017708333	95380489.03
0.017766204	95170200.76
0.017824074	94959912.5
0.017881944	94311030.91
0.017939815	93662149.32
0.017997685	93047076.39
0.018055556	92432003.46
0.018113426	91816930.54
0.018171296	91201857.61
0.018229167	90586784.69
0.018287037	89971711.76
0.018344907	89356638.83
0.018402778	88918045.51
0.018460648	88479452.18
0.018518519	87807958.74
0.018576389	86499716.52
0.018634259	85630067.63
0.01869213	84760418.74
0.01875	83695592.86
0.01880787	82630766.97
0.018865741	81565941.08
0.018923611	80501115.2
0.018981481	79436289.31
0.019039352	78371463.42
0.019097222	77306637.54
0.019155093	76241811.65
0.019212963	75176985.76
0.019270833	74345060
0.019328704	74149883
0.019386574	73954706
0.019444444	74153516.77
0.019502315	74547504.55
0.019560185	74941492.32
0.019618056	75335480.09
0.019675926	75391619.4
0.019733796	75447758.71
0.019791667	75503898.02
0.019849537	75560037.33
0.019907407	75542700.25
0.019965278	75525363.17
0.020023148	75508026.1
0.020081019	75490689.02
0.020138889	75473351.94
0.020196759	75062027.09
0.02025463	74650702.24
0.0203125	74239377.4
0.02037037	73828052.55
0.020428241	73754576.16
0.020486111	73681099.77
0.020543981	73607623.39
0.020601852	73596087.32
0.020659722	73658027.64
0.020717593	73719967.95
0.020775463	73781908.27
0.020833333	73843848.59
0.020891204	73905788.91
0.020949074	73967729.23
0.021006944	74029669.54
0.021064815	74091609.86
0.021122685	74153550.18
0.021180556	74215490.5
0.021238426	74277430.81
0.021296296	74571669.74
0.021354167	74803968.35
0.021412037	75036266.97
0.021469907	74943678.12
0.021527778	74851089.28
0.021585648	74758500.43
0.021643519	74396228
0.021701389	74033955.56
0.021759259	73671683.12
0.02181713	73309410.69
0.021875	72947138.25
0.02193287	72584865.81
0.021990741	72030910.55
0.022048611	71244656.68
0.022106481	70458402.82
0.022164352	69672148.95
0.022222222	69129573.18
0.022280093	68586997.41
0.022337963	68044421.64
0.022395833	67573009.34
0.022453704	67101597.04
0.022511574	66630184.74
0.022569444	66076260.5
0.022627315	65522336.26
0.022685185	64968412.02
0.022743056	64606170.61
0.022800926	64243929.19
0.022858796	63881687.77
0.022916667	63519446.36
0.022974537	63238414.29
0.023032407	62957382.23
0.023090278	62676350.17
0.023148148	62593838.23
0.023206019	62511326.3
0.023263889	62452351.97
0.023321759	62475889.58
0.02337963	62506169.16
0.0234375	62536448.74
0.02349537	62566728.32
0.023553241	62928709.3
0.023611111	63290690.28
0.023668981	63652671.26
0.023726852	64014652.24
0.023784722	64376633.23
0.023842593	64587565.94
0.023900463	64798498.65
0.023958333	65009431.36
0.024016204	65196826.46
0.024074074	65384221.57
0.024131944	65564874.7
0.024189815	65745527.83
0.024247685	65926180.96
0.024305556	65775132.69
0.024363426	65624084.42
0.024421296	65473036.15
0.024479167	65321987.88
0.024537037	65538506.73
0.024594907	65906073.86
0.024652778	66627641
0.024710648	67218726.67
0.024768519	67809812.34
0.024826389	68400898.01
0.024884259	68991983.68
0.02494213	69583069.35
0.025	70174155.02
0.02505787	70765240.69
0.025115741	71356326.36
0.025173611	71947412.03
0.025231481	72481088.79
0.025289352	72647198.42
0.025347222	72478400.32
0.025405093	71955602.21
0.025462963	71271950.22
0.025520833	70588298.23
0.025578704	69904646.24
0.025636574	69220994.25
0.025694444	68537342.26
0.025752315	67853690.28
0.025810185	67170038.29
0.025868056	66486386.3
0.025925926	65802734.31
0.025983796	65176491.24
0.026041667	64550248.16
0.026099537	64258912.82
0.026157407	64149280.84
0.026215278	64330984.2
0.026273148	64512687.56
0.026331019	64694390.91
0.026388889	65144723.29
0.026446759	65597472.84
0.02650463	66050222.4
0.0265625	66502971.95
0.02662037	66955721.51
0.026678241	67408471.06
0.026736111	67777799.94
0.026793981	68108951.06
0.026851852	68440102.18
0.026909722	68589549.94
0.026967593	68738997.71
0.027025463	68854793.9
0.027083333	68604125.2
0.027141204	68084827.48
0.027199074	67563112.58
0.027256944	67041397.68
0.027314815	66519682.78
0.027372685	65997967.88
0.027430556	65476252.98
0.027488426	65037958.76
0.027546296	64637842.29
0.027604167	64237725.83
0.027662037	63837609.36
0.027719907	63437492.89
0.027777778	63350573.47
0.027835648	63630118.95
0.027893519	63909664.42
0.027951389	64189209.9
0.028009259	64468755.38
0.02806713	64748300.85
0.028125	65027846.33
0.02818287	65578457.95
0.028240741	65885096.02
0.028298611	66191734.09
0.028356481	66498372.15
0.028414352	66805010.22
0.028472222	67111648.29
0.028530093	67138740.88
0.028587963	67165833.47
0.028645833	67192926.07
0.028703704	66636591
0.028761574	66080255.93
0.028819444	65523920.86
0.028877315	64967585.79
0.028935185	64140184.58
0.028993056	63556756.91
0.029050926	62973329.25
0.029108796	62389901.59
0.029166667	61806473.93
0.029224537	61223046.27
0.029282407	60639618.61
0.029340278	60056190.94
0.029398148	60227346.63
0.029456019	60981929.98
0.029513889	61736513.34
0.029571759	62491096.69
0.02962963	63245680.04
0.0296875	64000263.39
0.02974537	64754846.74
0.029803241	65509430.09
0.029861111	66264013.44
0.029918981	67018596.79
0.029976852	67341366.54
0.030034722	67664136.3
0.030092593	67986906.05
0.030150463	67555092.45
0.030208333	67123278.86
0.030266204	66691465.26
0.030324074	66259651.66
0.030381944	65827838.06
0.030439815	65396024.47
0.030497685	64964210.87
0.030555556	64532397.27
0.030613426	64100583.67
0.030671296	64108944.6
0.030729167	64549119.13
0.030787037	64740566.28
0.030844907	64932013.42
0.030902778	65123460.57
0.030960648	65314907.71
0.031018519	65506354.86
0.031076389	65697802.01
0.031134259	65889249.15
0.03119213	66080696.3
0.03125	66272143.45
0.03130787	66463590.59
0.031365741	66655037.74
0.031423611	66406310.36
0.031481481	66221512.53
0.031539352	66285442.09
0.031597222	66349371.64
0.031655093	66413301.19
0.031712963	66477230.75
0.031770833	66541160.3
0.031828704	66693972.03
0.031886574	66846783.76
0.031944444	66999595.49
0.032002315	67152407.22
0.032060185	67305218.95
0.032118056	67458030.68
0.032175926	67610842.41
0.032233796	67699724.59
0.032291667	68000458.26
0.032349537	68301191.94
0.032407407	68629395.87
0.032465278	68957599.8
0.032523148	69285803.74
0.032581019	69525125.49
0.032638889	70107677
0.032696759	70690228.51
0.03275463	71272780.01
0.0328125	71855331.52
0.03287037	72437883.03
0.032928241	73102929.93
0.032986111	73361858.62
0.033043981	73408935.81
0.033101852	73456013
0.033159722	73475619.93
0.033217593	73495226.86
0.033275463	73411496.67
0.033333333	73327766.48
0.033391204	72900806.54
0.033449074	72473846.6
0.033506944	72046886.66
0.033564815	71619926.72
0.033622685	71192966.79
0.033680556	70683511.45
0.033738426	70580174.33
0.033796296	70476837.21
0.033854167	70373500.09
0.033912037	70270162.97
0.033969907	70338335.89
0.034027778	70421104.74
0.034085648	70503873.59
0.034143519	70586642.44
0.034201389	70669411.3
0.034259259	70752180.15
0.03431713	70834949
0.034375	70917717.85
0.03443287	71000486.7
0.034490741	71083255.55
0.034548611	71166024.41
0.034606481	71204876.02
0.034664352	71243727.63
0.034722222	71111069.2
0.034780093	71067151.96
0.034837963	71023234.72
0.034895833	70979317.48
0.034953704	70935400.24
0.035011574	70891483
0.035069444	70847565.76
0.035127315	70803648.52
0.035185185	70759731.28
0.035243056	70715814.04
0.035300926	70694483.11
0.035358796	70717069.42
0.035416667	70739655.72
0.035474537	70762242.03
0.035532407	70784828.34
0.035590278	70807414.65
0.035648148	70830000.95
0.035706019	70852587.26
0.035763889	70875173.57
0.035821759	70790507.01
0.03587963	70653583.97
0.0359375	70516660.93
0.03599537	70379737.89
0.036053241	70220228.54
0.036111111	70060719.19
0.036168981	69901209.84
0.036226852	69741700.49
0.036284722	69582191.14
0.036342593	69422681.79
0.036400463	69263172.44
0.036458333	69103663.09
0.036516204	68703263.27
0.036574074	68410116.32
0.036631944	68169225.84
0.036689815	67928335.37
0.036747685	67687444.9
0.036805556	67446554.43
0.036863426	67205663.96
0.036921296	66964773.48
0.036979167	66723883.01
0.037037037	66482992.54
0.037094907	66242102.07
0.037152778	66001211.59
0.037210648	66001019.67
0.037268519	66577149.94
0.037326389	67153280.21
0.037384259	67729410.48
0.03744213	68305540.75
0.0375	68881671.02
0.03755787	69457801.29
0.037615741	70033931.57
0.037673611	70610061.84
0.037731481	71186192.11
0.037789352	71952114.63
0.037847222	72843730.78
0.037905093	73870744.31
0.037962963	74657059.29
0.038020833	75107942.55
0.038078704	75558825.81
0.038136574	76009709.07
0.038194444	76245159.19
0.038252315	76480609.31
0.038310185	76716059.43
0.038368056	76951509.55
0.038425926	77186959.67
0.038483796	77422409.79
0.038541667	77468067.66
0.038599537	77388031.91
0.038657407	77172598.77
0.038715278	76957165.63
0.038773148	76741732.49
0.038831019	76526299.35
0.038888889	76486684.72
0.038946759	76662503.23
0.03900463	76838321.73
0.0390625	77014140.24
0.03912037	77189958.74
0.039178241	77365777.25
0.039236111	77541595.75
0.039293981	77717414.26
0.039351852	77893232.76
0.039409722	78069051.27
0.039467593	78245200.82
0.039525463	78156516.22
0.039583333	78067831.63
0.039641204	77803328.53
0.039699074	77538825.44
0.039756944	77274322.34
0.039814815	77009819.24
0.039872685	76745316.14
0.039930556	76480813.05
0.039988426	76216309.95
0.040046296	75951806.85
0.040104167	75687303.75
0.040162037	75422800.66
0.040219907	75570998.26
0.040277778	75984030
0.040335648	76397061.74
0.040393519	76810093.48
0.040451389	77223125.22
0.040509259	77636156.97
0.04056713	78049188.71
0.040625	78462220.45
0.04068287	78875252.19
0.040740741	79288283.93
0.040798611	79701315.68
0.040856481	80201866.96
0.040914352	80702418.24
0.040972222	80789937.79
0.041030093	80877457.33
0.041087963	80964976.87
0.041145833	81052496.41
0.041203704	81181159.48
0.041261574	81309822.54
0.041319444	81438485.61
0.041377315	81567148.68
0.041435185	81695811.74
0.041493056	81824474.81
0.041550926	81953137.88
0.041608796	81994281.4
0.041666667	82035424.93
0.041724537	82330707.24
0.041782407	82625989.55
0.041840278	82921271.86
0.041898148	83219816.75
0.041956019	83477218.12
0.042013889	83734619.48
0.042071759	83992020.85
0.04212963	84249422.22
0.0421875	84506823.58
0.04224537	84854001.96
0.042303241	85201180.34
0.042361111	85548358.72
0.042418981	85895537.11
0.042476852	85684700.43
0.042534722	85473863.75
0.042592593	85263027.07
0.042650463	84995664.69
0.042708333	84728302.31
0.042766204	84460939.93
0.042824074	84193577.55
0.042881944	83926215.17
0.042939815	83658852.78
0.042997685	83301713.39
0.043055556	82944573.99
0.043113426	82587434.6
0.043171296	82230295.2
0.043229167	82177032.08
0.043287037	82123768.95
0.043344907	82143965.11
0.043402778	82217424.38
0.043460648	82290883.66
0.043518519	82364342.93
0.043576389	82437802.21
0.043634259	82511261.49
0.04369213	82584720.76
0.04375	82596425.6
0.04380787	82608130.43
0.043865741	82619835.27
0.043923611	82631540.1
0.043981481	82643244.94
0.044039352	82654949.77
0.044097222	82593195.33
0.044155093	82531440.89
0.044212963	82469686.45
0.044270833	82407932.01
0.044328704	82346177.57
0.044386574	82284423.13
0.044444444	82298655
0.044502315	82374641.31
0.044560185	82450627.62
0.044618056	82526613.94
0.044675926	82376505.62
0.044733796	82226397.31
0.044791667	82076289
0.044849537	81926180.68
0.044907407	81776072.37
0.044965278	81625964.05
0.045023148	81475855.74
0.045081019	81325747.43
0.045138889	81175639.11
0.045196759	80949544.49
0.04525463	80723449.86
0.0453125	80497355.23
0.04537037	80427011.25
0.045428241	80582761.9
0.045486111	80738512.54
0.045543981	80970186.44
0.045601852	81201860.34
0.045659722	81433534.23
0.045717593	81665208.13
0.045775463	81896882.03
0.045833333	82241983.05
0.045891204	82587084.08
0.045949074	82932185.1
0.046006944	83277286.13
0.046064815	83622387.15
0.046122685	83811737.53
0.046180556	84168170.97
